freq,psd_x,psd_y,psd_z,psd_xyz
0.0,3.573e+02,6.253e+00,1.347e+01,3.770e+02
1.5,2.155e+02,1.475e+01,5.838e+01,2.887e+02
3.0,2.518e+01,1.595e+01,6.731e+01,1.084e+02
4.5,2.393e+02,1.678e+01,8.480e+01,3.409e+02
6.0,9.736e+02,1.580e+01,8.376e+01,1.073e+03
7.5,1.648e+03,1.513e+01,6.588e+01,1.729e+03
9.0,2.393e+03,1.658e+01,5.952e+01,2.469e+03
10.5,3.345e+03,1.835e+01,7.431e+01,3.438e+03
12.0,4.544e+03,1.725e+01,5.861e+01,4.620e+03
13.4,5.975e+03,1.670e+01,6.400e+01,6.056e+03
14.9,6.785e+03,1.704e+01,6.392e+01,6.866e+03
16.4,7.287e+03,1.708e+01,7.130e+01,7.376e+03
17.9,8.967e+03,1.740e+01,8.402e+01,9.068e+03
19.4,1.145e+04,1.826e+01,8.095e+01,1.155e+04
20.9,1.414e+04,1.866e+01,8.072e+01,1.424e+04
22.4,1.719e+04,2.205e+01,8.098e+01,1.730e+04
23.9,1.930e+04,2.223e+01,1.120e+02,1.944e+04
25.4,2.008e+04,2.309e+01,9.878e+01,2.020e+04
26.9,2.310e+04,3.078e+01,9.029e+01,2.322e+04
28.4,2.692e+04,4.851e+01,7.100e+01,2.704e+04
29.9,3.173e+04,7.917e+01,7.700e+01,3.188e+04
31.4,3.786e+04,1.118e+02,7.171e+01,3.804e+04
32.9,4.500e+04,1.327e+02,7.782e+01,4.521e+04
34.4,5.278e+04,1.900e+02,9.584e+01,5.307e+04
35.9,6.214e+04,2.282e+02,1.377e+02,6.251e+04
37.4,7.349e+04,2.427e+02,2.453e+02,7.398e+04
38.8,8.471e+04,2.382e+02,4.164e+02,8.537e+04
40.3,9.898e+04,2.002e+02,5.934e+02,9.977e+04
41.8,1.174e+05,1.789e+02,7.354e+02,1.183e+05
43.3,1.425e+05,2.212e+02,8.908e+02,1.436e+05
44.8,1.792e+05,3.843e+02,1.087e+03,1.807e+05
46.3,2.232e+05,9.509e+02,1.071e+03,2.253e+05
47.8,2.774e+05,2.324e+03,9.020e+02,2.807e+05
49.3,3.545e+05,6.609e+03,8.714e+02,3.619e+05
50.8,4.462e+05,1.455e+04,1.999e+03,4.627e+05
52.3,5.657e+05,2.079e+04,7.141e+03,5.936e+05
53.8,7.660e+05,2.112e+04,1.742e+04,8.046e+05
55.3,1.144e+06,1.702e+04,3.114e+04,1.192e+06
56.8,1.698e+06,1.342e+04,4.766e+04,1.759e+06
58.3,1.473e+06,8.090e+03,3.849e+04,1.520e+06
59.8,1.049e+06,4.223e+03,2.423e+04,1.077e+06
61.3,8.762e+05,2.498e+03,1.934e+04,8.981e+05
62.7,7.102e+05,1.554e+03,1.485e+04,7.267e+05
64.2,5.709e+05,1.119e+03,1.150e+04,5.835e+05
65.7,4.517e+05,7.953e+02,9.329e+03,4.618e+05
67.2,3.745e+05,6.367e+02,8.020e+03,3.832e+05
68.7,3.473e+05,5.867e+02,7.650e+03,3.556e+05
70.2,3.216e+05,5.895e+02,7.057e+03,3.292e+05
71.7,2.652e+05,5.276e+02,5.729e+03,2.715e+05
73.2,1.980e+05,4.809e+02,4.073e+03,2.025e+05
74.7,1.620e+05,5.462e+02,2.949e+03,1.655e+05
76.2,1.281e+05,4.915e+02,2.003e+03,1.306e+05
77.7,1.070e+05,3.694e+02,1.310e+03,1.087e+05
79.2,9.869e+04,3.344e+02,1.084e+03,1.001e+05
80.7,8.976e+04,3.476e+02,1.033e+03,9.114e+04
82.2,7.811e+04,3.249e+02,9.414e+02,7.938e+04
83.7,6.163e+04,2.787e+02,8.094e+02,6.272e+04
85.2,4.391e+04,2.807e+02,6.858e+02,4.488e+04
86.7,3.140e+04,2.827e+02,5.364e+02,3.222e+04
88.1,2.288e+04,2.519e+02,3.850e+02,2.352e+04
89.6,1.711e+04,2.214e+02,2.443e+02,1.758e+04
91.1,1.491e+04,2.875e+02,1.690e+02,1.537e+04
92.6,1.350e+04,4.416e+02,1.639e+02,1.411e+04
94.1,1.338e+04,6.814e+02,3.930e+02,1.446e+04
95.6,1.629e+04,9.878e+02,9.322e+02,1.821e+04
97.1,2.378e+04,1.559e+03,1.954e+03,2.729e+04
98.6,4.247e+04,2.549e+03,3.507e+03,4.852e+04
100.1,5.245e+04,2.045e+03,3.017e+03,5.751e+04
101.6,5.799e+04,1.325e+03,2.103e+03,6.142e+04
103.1,5.990e+04,1.425e+03,2.244e+03,6.357e+04
104.6,5.689e+04,1.010e+03,1.845e+03,5.975e+04
106.1,6.327e+04,6.141e+02,1.403e+03,6.529e+04
107.6,6.666e+04,5.324e+02,1.292e+03,6.848e+04
109.1,6.067e+04,5.436e+02,1.099e+03,6.231e+04
110.6,5.257e+04,6.163e+02,9.072e+02,5.409e+04
112.1,4.548e+04,7.573e+02,1.005e+03,4.724e+04
113.5,4.271e+04,7.683e+02,1.001e+03,4.447e+04
115.0,4.316e+04,8.362e+02,8.207e+02,4.482e+04
116.5,3.873e+04,1.324e+03,1.019e+03,4.107e+04
118.0,3.003e+04,2.432e+03,2.229e+03,3.469e+04
119.5,4.176e+04,2.904e+03,3.572e+03,4.823e+04
121.0,6.837e+04,2.140e+03,3.282e+03,7.379e+04
122.5,6.351e+04,1.729e+03,2.337e+03,6.758e+04
124.0,4.823e+04,1.713e+03,2.024e+03,5.197e+04
125.5,4.047e+04,1.906e+03,2.234e+03,4.461e+04
127.0,3.878e+04,2.217e+03,2.625e+03,4.362e+04
128.5,3.900e+04,2.539e+03,3.085e+03,4.463e+04
130.0,3.900e+04,2.596e+03,3.430e+03,4.502e+04
131.5,3.484e+04,1.888e+03,2.755e+03,3.948e+04
133.0,1.842e+04,1.075e+03,1.470e+03,2.097e+04
134.5,5.777e+03,6.329e+02,7.834e+02,7.193e+03
136.0,7.363e+03,2.738e+03,2.180e+03,1.228e+04
137.5,8.307e+03,3.479e+03,2.711e+03,1.450e+04
138.9,6.123e+03,9.790e+02,1.084e+03,8.186e+03
140.4,6.045e+03,8.574e+02,9.734e+02,7.875e+03
141.9,6.302e+03,9.366e+02,9.998e+02,8.238e+03
143.4,6.830e+03,1.086e+03,1.102e+03,9.019e+03
144.9,7.207e+03,1.286e+03,1.234e+03,9.727e+03
146.4,7.929e+03,1.615e+03,1.470e+03,1.101e+04
147.9,8.342e+03,1.666e+03,1.548e+03,1.156e+04
149.4,7.736e+03,1.398e+03,1.363e+03,1.050e+04
150.9,7.816e+03,1.364e+03,1.384e+03,1.056e+04
152.4,8.727e+03,1.553e+03,1.608e+03,1.189e+04
153.9,9.398e+03,1.644e+03,1.718e+03,1.276e+04
155.4,1.020e+04,1.791e+03,1.881e+03,1.387e+04
156.9,1.172e+04,2.287e+03,2.281e+03,1.629e+04
158.4,1.359e+04,3.101e+03,2.768e+03,1.946e+04
159.9,1.580e+04,4.073e+03,3.350e+03,2.323e+04
161.4,1.805e+04,4.912e+03,3.951e+03,2.692e+04
162.8,2.039e+04,5.697e+03,4.376e+03,3.046e+04
164.3,2.176e+04,6.382e+03,4.688e+03,3.283e+04
165.8,2.279e+04,7.163e+03,4.803e+03,3.475e+04
167.3,2.530e+04,8.417e+03,5.480e+03,3.920e+04
168.8,2.879e+04,9.979e+03,6.653e+03,4.542e+04
170.3,3.235e+04,1.163e+04,7.644e+03,5.163e+04
171.8,3.781e+04,1.458e+04,1.012e+04,6.251e+04
173.3,3.040e+04,1.315e+04,8.582e+03,5.213e+04
174.8,1.870e+04,9.997e+03,5.114e+03,3.381e+04
176.3,1.763e+04,1.020e+04,5.050e+03,3.288e+04
177.8,1.569e+04,9.578e+03,4.943e+03,3.021e+04
179.3,1.494e+04,9.490e+03,4.850e+03,2.928e+04
180.8,1.501e+04,9.952e+03,4.922e+03,2.988e+04
182.3,1.464e+04,9.666e+03,4.950e+03,2.925e+04
183.8,1.392e+04,7.422e+03,4.681e+03,2.603e+04
185.3,1.348e+04,5.211e+03,4.295e+03,2.299e+04
186.8,1.331e+04,4.984e+03,4.009e+03,2.230e+04
188.2,1.325e+04,5.085e+03,3.596e+03,2.193e+04
189.7,1.254e+04,4.695e+03,3.060e+03,2.029e+04
191.2,1.188e+04,4.705e+03,2.639e+03,1.923e+04
192.7,1.210e+04,5.256e+03,2.571e+03,1.992e+04
194.2,1.271e+04,6.039e+03,2.584e+03,2.133e+04
195.7,1.204e+04,6.171e+03,2.377e+03,2.059e+04
197.2,1.078e+04,5.859e+03,2.211e+03,1.885e+04
198.7,9.668e+03,5.085e+03,1.997e+03,1.675e+04
